ID,Category,Latitude,Longitude
1,,44.8509426,11.9649185
2,,44.8507932,11.9649521
3,,44.8506153,11.9649335
4,,44.8504436,11.9649282
5,,44.8502855,11.9649399
6,,44.8501235,11.964945
7,,44.8499716,11.9649522
8,,44.8498178,11.9649458
9,,44.8496598,11.9649483
10,,44.8494831,11.9649486
11,,44.8492918,11.9649621
12,,44.8491027,11.9649556
13,,44.8488918,11.964956
14,,44.8486934,11.9649637
15,,44.8484929,11.9649629
16,,44.8483032,11.9649763
17,,44.8481039,11.9649664
18,,44.8479179,11.9649663
19,,44.8477529,11.9649712
20,,44.8475568,11.9649789
21,,44.8473982,11.9650701
22,,44.8485431,11.9652862
23,,44.8487596,11.9652911
24,,44.8489636,11.9652856
25,,44.8491659,11.9652796
26,,44.8493856,11.9652759
27,,44.8495915,11.9652737
28,,44.8497964,11.9652704
29,,44.8500142,11.9652716
30,,44.850219,11.9652674
31,,44.850425,11.9652662
32,,44.8506472,11.9652223
33,,44.8508683,11.9651697
34,,44.8509813,11.9649554
35,,44.850855,11.965194
36,,44.850592,11.9651746
37,,44.8503576,11.9651763
38,,44.8501212,11.9651799
39,,44.8498634,11.9651874
40,,44.8496245,11.9652003
41,,44.849374,11.9652032
42,,44.8491402,11.9652091
43,,44.8489364,11.9652086
44,,44.8487185,11.9652113
45,,44.848512,11.9652039
46,,44.8482992,11.9652139
47,,44.8480744,11.965221
48,,44.847871,11.9652298
49,,44.8476874,11.9652364
50,,44.8474925,11.9652348
51,,44.8474819,11.9650641
52,,44.8476605,11.9650672
53,,44.8478496,11.9650681
54,,44.8480531,11.9650535
55,,44.8482697,11.9650577
56,,44.8484774,11.965042
57,,44.848694,11.965045
58,,44.8488838,11.9650413
59,,44.8490822,11.965035
60,,44.8493003,11.9650363
61,,44.8494966,11.9650279
62,,44.8497018,11.9650344
63,,44.8499509,11.9650347
64,,44.8501823,11.9650181
65,,44.8503925,11.9650186
66,,44.8506171,11.9650108
67,,44.8508309,11.9650105
68,,44.8509863,11.9650838
69,,44.850784,11.9650767
70,,44.8505738,11.9650816
71,,44.8503732,11.9650794
72,,44.8501502,11.9650841
73,,44.8499448,11.9650931
74,,44.8497274,11.9651054
75,,44.8494879,11.9651041
76,,44.8492706,11.9651036
77,,44.8490477,11.9651085
78,,44.8488028,11.9651075
79,,44.8485717,11.9651175
80,,44.8483362,11.96512
81,,44.8480894,11.9651317
82,,44.8478563,11.9651386
83,,44.8476428,11.9651503
84,,44.8475224,11.9657334
85,,44.8477081,11.9657342
86,,44.8478871,11.965728
87,,44.8480821,11.9657267
88,,44.8482634,11.9657202
89,,44.8484464,11.9657167
90,,44.8486459,11.9657074
91,,44.848837,11.9657072
92,,44.8490356,11.9657017
93,,44.8492396,11.9656945
94,,44.8494231,11.9656857
95,,44.8496107,11.9656757
96,,44.8498115,11.9656816
97,,44.8500009,11.9656766
98,,44.8501975,11.9656749
99,,44.8508126,11.9656724
100,,44.8508521,11.9653715
101,,44.8506549,11.9653696
102,,44.850456,11.9653764
103,,44.8502561,11.965385
104,,44.8500628,11.9653962
105,,44.8498578,11.9654065
106,,44.8496647,11.9654079
107,,44.8494694,11.965406
108,,44.8492509,11.9654116
109,,44.8490492,11.9654137
110,,44.8488542,11.9654199
111,,44.8486375,11.9654241
112,,44.8484358,11.9654249
113,,44.8482365,11.9654306
114,,44.8480137,11.9654325
115,,44.8478075,11.9654392
116,,44.8476315,11.965436
117,,44.8475353,11.965524
118,,44.8477011,11.9655269
119,,44.8478717,11.965534
120,,44.8480549,11.9655232
121,,44.8482291,11.9655192
122,,44.8484161,11.9655199
123,,44.8486213,11.9655177
124,,44.8488133,11.9655093
125,,44.8490168,11.9655086
126,,44.8492099,11.9655081
127,,44.8494068,11.9654958
128,,44.8496153,11.9654939
129,,44.8498049,11.9654967
130,,44.8499973,11.9654937
131,,44.8501902,11.9654853
132,,44.8504004,11.9654815
133,,44.8505899,11.9654814
134,,44.8507919,11.965472
135,,44.8508501,11.9655526
136,,44.8506571,11.9655685
137,,44.8504439,11.9655643
138,,44.850253,11.9655763
139,,44.850063,11.965584
140,,44.8498512,11.9655917
141,,44.8496399,11.9655832
142,,44.8494446,11.9655814
143,,44.8492357,11.9655897
144,,44.8490384,11.9655938
145,,44.8488481,11.9655995
146,,44.8486351,11.9656047
147,,44.8484316,11.9656058
148,,44.8482371,11.9656059
149,,44.8480205,11.9656097
150,,44.8478193,11.9656146
151,,44.8476463,11.9656205
152,,44.8474829,11.9656198
153,,44.8506765,11.9661032
154,,44.8504872,11.9661061
155,,44.8503039,11.9661137
156,,44.8501052,11.9661064
157,,44.8499114,11.9661037
158,,44.84965,11.9661154
159,,44.8494697,11.9661205
160,,44.8492872,11.9661179
161,,44.8490954,11.9661202
162,,44.8488784,11.9661364
163,,44.8487079,11.9661343
164,,44.8485362,11.9661299
165,,44.8483737,11.9661405
166,,44.8482004,11.9661477
167,,44.848036,11.9661518
168,,44.8478702,11.9661527
169,,44.8476909,11.9661632
170,,44.8475224,11.9661673
171,,44.8474037,11.9661424
172,,44.8474326,11.9658707
173,,44.8475703,11.9658683
174,,44.8477246,11.9658665
175,,44.8479158,11.9658584
176,,44.8481092,11.9658537
177,,44.8482959,11.9658506
178,,44.8484977,11.9658556
179,,44.8486912,11.9658569
180,,44.8488838,11.9658392
181,,44.8490811,11.9658418
182,,44.8492721,11.96584
183,,44.8494655,11.9658348
184,,44.8496689,11.9658302
185,,44.8498628,11.9658148
186,,44.8500552,11.9658117
187,,44.8502598,11.9658066
188,,44.8504439,11.9657981
189,,44.8506323,11.9658009
190,,44.8508327,11.9657977
191,,44.8508319,11.9658697
192,,44.8506627,11.9658738
193,,44.8497289,11.9658936
194,,44.8495252,11.9658976
195,,44.849321,11.9659004
196,,44.8491149,11.9659103
197,,44.8488932,11.9659178
198,,44.8486866,11.96592
199,,44.8484903,11.9659291
200,,44.8482788,11.9659299
201,,44.8480901,11.9659305
202,,44.8479094,11.9659341
203,,44.8477309,11.9659355
204,,44.8475622,11.9659357
205,,44.8473917,11.9659459
206,,44.8473988,11.9660823
207,,44.8475383,11.9660687
208,,44.8476939,11.9660666
209,,44.8478526,11.9660705
210,,44.8480334,11.9660653
211,,44.8481923,11.9660678
212,,44.8483591,11.9660605
213,,44.8485357,11.9660508
214,,44.8486997,11.9660425
215,,44.8488632,11.966039
216,,44.8490326,11.96604
217,,44.849202,11.9660373
218,,44.8493698,11.9660284
219,,44.8495454,11.9660198
220,,44.8497081,11.9660205
221,,44.8498794,11.9660174
222,,44.8500625,11.9660134
223,,44.8502327,11.9660123
224,,44.8504029,11.9660054
225,,44.8505886,11.9659984
226,,44.8507669,11.9659969
227,,44.8474502,11.966573
228,,44.8476047,11.9665741
229,,44.8477529,11.9665689
230,,44.8479202,11.966572
231,,44.8480782,11.9665593
232,,44.8482319,11.9665486
233,,44.8483997,11.9665463
234,,44.8485589,11.9665476
235,,44.8487207,11.9665487
236,,44.8488948,11.9665361
237,,44.8490594,11.9665294
238,,44.8492307,11.9665262
239,,44.8493925,11.966526
240,,44.8495633,11.9665257
241,,44.849754,11.9665179
242,,44.8499456,11.9665152
243,,44.8501444,11.966513
244,,44.8503534,11.9664989
245,,44.8505543,11.9664959
246,,44.8506623,11.9662001
247,,44.8504837,11.9662
248,,44.8503053,11.9662084
249,,44.8501186,11.9662134
250,,44.8499401,11.9662232
251,,44.8497613,11.9662315
252,,44.8495224,11.966238
253,,44.8493757,11.9662413
254,,44.8491997,11.9662434
255,,44.8490207,11.9662509
256,,44.8488409,11.9662508
257,,44.8486502,11.9662598
258,,44.8484801,11.9662613
259,,44.8482903,11.966265
260,,44.8481102,11.966267
261,,44.847933,11.9662656
262,,44.847739,11.9662637
263,,44.8475564,11.9662732
264,,44.8474619,11.966358
265,,44.8476131,11.9663488
266,,44.8477609,11.9663517
267,,44.8479112,11.96635
268,,44.8480772,11.9663513
269,,44.8482319,11.9663539
270,,44.8483931,11.9663514
271,,44.8485617,11.966348
272,,44.8487178,11.9663428
273,,44.8489534,11.9663331
274,,44.8491338,11.9663285
275,,44.8492211,11.9662388
276,,44.8506038,11.9662822
277,,44.8504001,11.966292
278,,44.8501929,11.9662976
279,,44.8499737,11.966311
280,,44.8497627,11.96632
281,,44.8495407,11.9663257
282,,44.8493334,11.9663272
283,,44.8480604,11.966445
284,,44.8478508,11.9664463
285,,44.8476323,11.9664451
286,,44.8474525,11.9664463
287,,44.8490914,11.966466
288,,44.8492903,11.966447
289,,44.8503399,11.9664102
290,,44.8505476,11.9664057
291,,44.8506861,11.9666278
292,,44.8504689,11.9666319
293,,44.8502373,11.9666346
294,,44.8500256,11.9666365
295,,44.8497957,11.9666479
296,,44.8495777,11.9666492
297,,44.8493556,11.9666498
298,,44.8491254,11.9666565
299,,44.8489109,11.9666615
300,,44.8487108,11.9666606
301,,44.8485012,11.9666667
302,,44.8483112,11.9666703
303,,44.8481216,11.9666834
304,,44.8479138,11.9666902
305,,44.8477102,11.9666889
306,,44.8475135,11.9666908
307,,44.8474215,11.9667115
308,,44.8475315,11.9670039
309,,44.8476998,11.9670069
310,,44.847875,11.9669993
311,,44.8480488,11.9669955
312,,44.8482267,11.9669889
313,,44.8484103,11.9669833
314,,44.8485806,11.9669824
315,,44.8487694,11.9669777
316,,44.8489482,11.9669643
317,,44.8491269,11.9669581
318,,44.8493083,11.9669482
319,,44.8494866,11.9669428
320,,44.8496861,11.9669461
321,,44.8498957,11.9669411
322,,44.8501066,11.9669343
323,,44.8503191,11.9669328
324,,44.850544,11.9669309
325,,44.8506862,11.966715
326,,44.8504589,11.9667178
327,,44.8502487,11.9667248
328,,44.8500273,11.9667303
329,,44.8498181,11.9667354
330,,44.8496086,11.966738
331,,44.8493887,11.966743
332,,44.8491804,11.9667435
333,,44.8489718,11.9667457
334,,44.8487458,11.9667505
335,,44.8485422,11.9667551
336,,44.8483342,11.9667638
337,,44.8481182,11.9667771
338,,44.8479178,11.9667806
339,,44.8477254,11.9667889
340,,44.8475536,11.9667871
341,,44.847403,11.966926
342,,44.8475789,11.9669195
343,,44.847781,11.9669259
344,,44.8479588,11.9669193
345,,44.8481547,11.966913
346,,44.8483517,11.9669026
347,,44.8485499,11.9668976
348,,44.8487285,11.966889
349,,44.848931,11.9668848
350,,44.8491246,11.9668924
351,,44.8493081,11.9668768
352,,44.849517,11.9668735
353,,44.8497283,11.9668678
354,,44.8499155,11.9668661
355,,44.8501472,11.9668542
356,,44.8503664,11.9668497
357,,44.8506,11.9668435
358,,44.8505106,11.9667825
359,,44.85029,11.9667811
360,,44.8500584,11.9667869
361,,44.8498024,11.9667966
362,,44.849565,11.9668017
363,,44.8493286,11.9668056
364,,44.8490756,11.9668116
365,,44.8488401,11.9668198
366,,44.8486064,11.9668288
367,,44.8483501,11.966825
368,,44.8481084,11.9668211
369,,44.8478811,11.9668259
370,,44.8476619,11.9668388
371,,44.8474493,11.9668468
372,,44.8474446,11.9674214
373,,44.8476128,11.967417
374,,44.8478162,11.9674182
375,,44.8480015,11.9674155
376,,44.8481932,11.967412
377,,44.8483876,11.9674081
378,,44.8485756,11.9673974
379,,44.84876,11.967403
380,,44.8489618,11.9673906
381,,44.8491488,11.9673788
382,,44.8493402,11.9673744
383,,44.8495552,11.9673652
384,,44.8497496,11.9673669
385,,44.8499634,11.9673558
386,,44.8501774,11.9673433
387,,44.8503876,11.9673406
388,,44.85046,11.967047
389,,44.8502617,11.9670544
390,,44.8500495,11.9670573
391,,44.8498388,11.9670588
392,,44.8496296,11.9670609
393,,44.8494116,11.9670737
394,,44.849222,11.9670698
395,,44.8490274,11.9670727
396,,44.8488142,11.9670678
397,,44.8486183,11.9670841
398,,44.8484207,11.967083
399,,44.8482087,11.9670816
400,,44.8480148,11.967087
401,,44.8478185,11.9670873
402,,44.8476029,11.9670941
403,,44.8474065,11.9671142
404,,44.847447,11.9673321
405,,44.8476561,11.9673224
406,,44.8478681,11.9673128
407,,44.848091,11.9673093
408,,44.8483104,11.9673138
409,,44.8485232,11.9673027
410,,44.8487553,11.9672954
411,,44.8489725,11.9672879
412,,44.8491995,11.9672784
413,,44.8494005,11.9672746
414,,44.8496041,11.9672681
415,,44.84983,11.967265
416,,44.8500408,11.9672538
417,,44.8502523,11.9672466
418,,44.8504847,11.9672362
419,,44.8503962,11.9674665
420,,44.8502021,11.9674605
421,,44.8499962,11.9674726
422,,44.8498031,11.9674758
423,,44.849608,11.9674721
424,,44.8494049,11.9674881
425,,44.8492179,11.9675099
426,,44.8490329,11.9675136
427,,44.848824,11.9675125
428,,44.848627,11.9675132
429,,44.8483629,11.9675241
430,,44.8481673,11.9675246
431,,44.8479711,11.9675333
432,,44.8477608,11.9675405
433,,44.8475691,11.9675393
434,,44.8475787,11.9678399
435,,44.8477869,11.9678421
436,,44.8479802,11.9678381
437,,44.8481709,11.9678249
438,,44.8483866,11.967819
439,,44.8485854,11.9678146
440,,44.8487771,11.9678085
441,,44.8489843,11.967811
442,,44.8491788,11.9678035
443,,44.8493739,11.967789
444,,44.8495799,11.9677885
445,,44.8497748,11.9677838
446,,44.8499773,11.9677758
447,,44.8501976,11.9677697
448,,44.8504018,11.9677622
449,,44.8504578,11.967171
450,,44.850262,11.9671746
451,,44.8500651,11.9671879
452,,44.8498562,11.9672
453,,44.8496939,11.9671636
454,,44.8497907,11.9672592
455,,44.8500554,11.9672727
456,,44.8504851,11.9671421
457,,44.8502495,11.9671458
458,,44.8499923,11.9671498
459,,44.8497497,11.9671546
460,,44.8495083,11.9671649
461,,44.8492555,11.9671756
462,,44.8490332,11.9671807
463,,44.8488047,11.967181
464,,44.8485695,11.9671779
465,,44.8483426,11.9671823
466,,44.8480968,11.9671835
467,,44.8478653,11.9671915
468,,44.8476458,11.9671863
469,,44.8474293,11.9672899
470,,44.8476728,11.967283
471,,44.8479133,11.9672685
472,,44.8481539,11.9672617
473,,44.8484165,11.9672612
474,,44.848658,11.9672509
475,,44.8488982,11.9672437
476,,44.8491564,11.9672385
477,,44.8493995,11.967235
478,,44.8496451,11.9672285
479,,44.850041,11.9672207
480,,44.8504264,11.9675634
481,,44.8502022,11.9675706
482,,44.8499671,11.9675829
483,,44.84972,11.9675777
484,,44.84949,11.96759
485,,44.849261,11.9675913
486,,44.8490197,11.9675989
487,,44.8487912,11.9676023
488,,44.8485512,11.9676087
489,,44.8483254,11.9676169
490,,44.8481002,11.9676203
491,,44.8478575,11.9676249
492,,44.8476301,11.9676327
493,,44.8474068,11.9676402
494,,44.8475265,11.9677698
495,,44.8477403,11.9677556
496,,44.8479746,11.9677449
497,,44.8481948,11.9677453
498,,44.8484139,11.967739
499,,44.8486448,11.9677334
500,,44.8488602,11.9677246
501,,44.8490761,11.9677202
502,,44.8493083,11.9677068
503,,44.849527,11.9676976
504,,44.849746,11.9676949
505,,44.849976,11.9676875
506,,44.8501985,11.9676863
507,,44.8503588,11.9676819
508,,44.850406,11.9676407
509,,44.8501899,11.9676527
510,,44.8499656,11.9676538
511,,44.8497344,11.9676685
512,,44.8495116,11.9676743
513,,44.8492875,11.967673
514,,44.8490904,11.96768
515,,44.8488849,11.9676831
516,,44.8486714,11.9676861
517,,44.8484731,11.9676893
518,,44.8482733,11.9676929
519,,44.8480555,11.9676936
520,,44.847855,11.9676966
521,,44.8476583,11.967706
522,,44.8474381,11.9677211
523,,44.8474009,11.9683242
524,,44.8476058,11.968325
525,,44.8477789,11.9683205
526,,44.8479551,11.9683112
527,,44.8481459,11.9683092
528,,44.8483206,11.9683058
529,,44.8484835,11.9682996
530,,44.8486487,11.9682939
531,,44.848809,11.968287
532,,44.8489699,11.9682922
533,,44.849147,11.9682886
534,,44.8493232,11.968292
535,,44.8494967,11.9682896
536,,44.8496807,11.9682856
537,,44.8498491,11.9682879
538,,44.8500342,11.9682817
539,,44.8502082,11.9682827
540,,44.8503765,11.9682652
541,,44.8504,11.9678771
542,,44.8503094,11.9678906
543,,44.8501264,11.9678959
544,,44.84995,11.9679034
545,,44.8497842,11.9679004
546,,44.8496,11.9679026
547,,44.8494119,11.9679141
548,,44.8492089,11.9679225
549,,44.8490083,11.9679282
550,,44.8488186,11.9679288
551,,44.8486191,11.9679356
552,,44.8484277,11.9679417
553,,44.848235,11.9679451
554,,44.8480496,11.967952
555,,44.8478976,11.9679572
556,,44.8477447,11.9679596
557,,44.8475773,11.9679672
558,,44.8474212,11.9679726
559,,44.8474888,11.9682409
560,,44.8476766,11.968222
561,,44.847831,11.9682239
562,,44.8479913,11.9682181
563,,44.8481472,11.9682152
564,,44.8482956,11.9682087
565,,44.8484647,11.9682041
566,,44.8486266,11.968208
567,,44.8487831,11.9682128
568,,44.8489389,11.9682185
569,,44.8490899,11.9682115
570,,44.8492323,11.9682105
571,,44.8493898,11.9682011
572,,44.849537,11.9682007
573,,44.849681,11.9681951
574,,44.8498451,11.9681877
575,,44.8499966,11.9681864
576,,44.8501606,11.9681921
577,,44.8503164,11.9681902
578,,44.8502976,11.9679801
579,,44.8501024,11.9679869
580,,44.8498934,11.96799
581,,44.8496989,11.9679904
582,,44.8494986,11.9679922
583,,44.8492867,11.968001
584,,44.8490889,11.9680076
585,,44.8489009,11.9680139
586,,44.8487059,11.9680253
587,,44.8485231,11.9680288
588,,44.8483626,11.9680298
589,,44.8481925,11.9680355
590,,44.8480338,11.9680422
591,,44.8478748,11.9680469
592,,44.8476945,11.9680498
593,,44.847525,11.9680585
594,,44.8474649,11.9681795
595,,44.847521,11.9681395
596,,44.8476949,11.968132
597,,44.8478828,11.9681311
598,,44.8480622,11.968124
599,,44.848231,11.9681173
600,,44.8484046,11.9680907
601,,44.8486141,11.9680836
602,,44.8488143,11.968077
603,,44.8490225,11.9680664
604,,44.8492272,11.9680624
605,,44.8494273,11.9680566
606,,44.8496442,11.9680542
607,,44.8498339,11.9680495
608,,44.8500197,11.9680509
609,,44.8502174,11.9680458
610,,44.8504066,11.9680414
611,,44.8502407,11.968441
612,,44.8500653,11.9684439
613,,44.8499021,11.9684466
614,,44.849736,11.9684516
615,,44.8495602,11.9684565
616,,44.8493797,11.9684545
617,,44.849196,11.9684581
618,,44.8489492,11.968456
619,,44.8488426,11.9684568
620,,44.8487295,11.968463
621,,44.8485914,11.9684614
622,,44.8484499,11.9684597
623,,44.8483088,11.9684616
624,,44.8481635,11.968469
625,,44.8480404,11.9684638
626,,44.8478874,11.9684679
627,,44.8477375,11.968473
628,,44.8475938,11.968493
629,,44.8476826,11.968193
630,,44.8479898,11.9681886
631,,44.8482617,11.9681826
632,,44.8484697,11.9681739
633,,44.8486758,11.9681716
634,,44.8488727,11.9681682
635,,44.8490728,11.9681593
636,,44.8492836,11.9681544
637,,44.8494867,11.9681529
638,,44.8496949,11.9681429
639,,44.8499099,11.9681343
640,,44.8501132,11.9681344
641,,44.8503189,11.9681322
642,,44.8501286,11.9687787
643,,44.8499507,11.9687859
644,,44.8497587,11.9687785
645,,44.8495547,11.9687864
646,,44.8493679,11.9687813
647,,44.8491838,11.9687858
648,,44.8490008,11.9687866
649,,44.8488322,11.9687962
650,,44.8486457,11.9687874
651,,44.8484538,11.9687942
652,,44.8482737,11.9687911
653,,44.8481103,11.9688016
654,,44.8479165,11.9687978
655,,44.8477384,11.9687969
656,,44.8475622,11.9688015
657,,44.8475152,11.9685733
658,,44.8476678,11.9685512
659,,44.8478315,11.9685444
660,,44.8480018,11.968542
661,,44.848163,11.9685396
662,,44.8483252,11.9685402
663,,44.8484981,11.968533
664,,44.8486606,11.9685247
665,,44.8488239,11.9685352
666,,44.8489936,11.9685369
667,,44.8491662,11.9685384
668,,44.8493347,11.9685262
669,,44.8495206,11.9685313
670,,44.849691,11.9685321
671,,44.8498597,11.9685289
672,,44.8500562,11.9685269
673,,44.8502474,11.9685209
674,,44.8503384,11.9685964
675,,44.8501567,11.96869
676,,44.8499555,11.9687016
677,,44.8497539,11.9687015
678,,44.8495699,11.9687071
679,,44.8493784,11.9687071
680,,44.8492005,11.9687104
681,,44.849019,11.9687091
682,,44.8488276,11.9687171
683,,44.8486428,11.9687042
684,,44.8484647,11.9687121
685,,44.8482648,11.9687091
686,,44.8480852,11.9687163
687,,44.847912,11.9687212
688,,44.8477176,11.9687245
689,,44.8475321,11.9687179
690,,44.8473995,11.9686472
691,,44.8475807,11.9686342
692,,44.8477715,11.9686232
693,,44.847976,11.9686189
694,,44.8481687,11.9686208
695,,44.8483694,11.9686143
696,,44.8485577,11.9686079
697,,44.8487634,11.9686087
698,,44.8489084,11.968615
699,,44.8490853,11.9686202
700,,44.8492762,11.9686097
701,,44.8494588,11.9686105
702,,44.8496329,11.9686083
703,,44.8498242,11.9686143
704,,44.8500029,11.9686091
705,,44.8501874,11.9686037
706,,44.85009,11.9692332
707,,44.8499073,11.9692435
708,,44.8497339,11.9692425
709,,44.8495581,11.969248
710,,44.8493687,11.9692394
711,,44.849198,11.9692394
712,,44.8490252,11.9692398
713,,44.8488367,11.969235
714,,44.8486515,11.9692336
715,,44.8484612,11.9692391
716,,44.848203,11.9692375
717,,44.8479902,11.969242
718,,44.8477795,11.9692456
719,,44.8475558,11.9692388
720,,44.8474262,11.9692372
721,,44.8475457,11.9689252
722,,44.8477534,11.9689152
723,,44.8479444,11.9689079
